13/09/2019 16:24
Longitud de onda (nm)	10mm Absorbance
//WLCalib: Shift 	0,23667	
//WLCalib: 261S 	-0,08000	
//WLCalib: 362S 	-0,58000	
//WLCalib: 484S 	-0,83000	
//WLCalib: 529S 	-0,65000	
//WLCalib: 823S 	-0,29000	
//QSpecEnd: 
190,0	1,605
190,5	1,654
191,0	1,699
191,5	1,736
192,0	1,766
192,5	1,790
193,0	1,809
193,5	1,825
194,0	1,841
194,5	1,857
195,0	1,874
195,5	1,890
196,0	1,904
196,5	1,914
197,0	1,919
197,5	1,918
198,0	1,913
198,5	1,904
199,0	1,895
199,5	1,889
200,0	1,889
200,5	1,897
201,0	1,910
201,5	1,930
202,0	1,954
202,5	1,979
203,0	2,005
203,5	2,031
204,0	2,056
204,5	2,077
205,0	2,096
205,5	2,111
206,0	2,122
206,5	2,132
207,0	2,139
207,5	2,144
208,0	2,149
208,5	2,152
209,0	2,155
209,5	2,156
210,0	2,155
210,5	2,153
211,0	2,153
211,5	2,153
212,0	2,152
212,5	2,149
213,0	2,147
213,5	2,145
214,0	2,144
214,5	2,146
215,0	2,149
215,5	2,157
216,0	2,170
216,5	2,183
217,0	2,200
217,5	2,220
218,0	2,243
218,5	2,270
219,0	2,301
219,5	2,335
220,0	2,371
220,5	2,407
221,0	2,440
221,5	2,471
222,0	2,501
222,5	2,528
223,0	2,551
223,5	2,579
224,0	2,628
224,5	2,659
225,0	2,659
225,5	2,634
226,0	2,578
226,5	2,496
227,0	2,390
227,5	2,275
228,0	2,170
228,5	2,093
229,0	2,046
229,5	1,992
230,0	1,939
230,5	1,907
231,0	1,871
231,5	1,832
232,0	1,795
232,5	1,764
233,0	1,745
233,5	1,731
234,0	1,720
234,5	1,709
235,0	1,699
235,5	1,695
236,0	1,680
236,5	1,665
237,0	1,653
237,5	1,637
238,0	1,629
238,5	1,620
239,0	1,611
239,5	1,601
240,0	1,591
240,5	1,579
241,0	1,565
241,5	1,553
242,0	1,541
242,5	1,525
243,0	1,511
243,5	1,495
244,0	1,476
244,5	1,454
245,0	1,429
245,5	1,403
246,0	1,374
246,5	1,348
247,0	1,322
247,5	1,296
248,0	1,270
248,5	1,244
249,0	1,218
249,5	1,190
250,0	1,163
250,5	1,136
251,0	1,111
251,5	1,089
252,0	1,069
252,5	1,049
253,0	1,033
253,5	1,017
254,0	1,003
254,5	0,990
255,0	0,977
255,5	0,964
256,0	0,953
256,5	0,945
257,0	0,935
257,5	0,927
258,0	0,920
258,5	0,913
259,0	0,907
259,5	0,902
260,0	0,895
260,5	0,889
261,0	0,885
261,5	0,880
262,0	0,876
262,5	0,870
263,0	0,866
263,5	0,862
264,0	0,859
264,5	0,855
265,0	0,852
265,5	0,848
266,0	0,845
266,5	0,842
267,0	0,838
267,5	0,834
268,0	0,830
268,5	0,826
269,0	0,822
269,5	0,818
270,0	0,815
270,5	0,811
271,0	0,808
271,5	0,805
272,0	0,802
272,5	0,798
273,0	0,795
273,5	0,792
274,0	0,789
274,5	0,785
275,0	0,782
275,5	0,778
276,0	0,775
276,5	0,772
277,0	0,769
277,5	0,765
278,0	0,762
278,5	0,759
279,0	0,756
279,5	0,753
280,0	0,749
280,5	0,747
281,0	0,744
281,5	0,741
282,0	0,738
282,5	0,736
283,0	0,733
283,5	0,731
284,0	0,728
284,5	0,725
285,0	0,722
285,5	0,719
286,0	0,716
286,5	0,712
287,0	0,709
287,5	0,707
288,0	0,705
288,5	0,703
289,0	0,700
289,5	0,698
290,0	0,695
290,5	0,693
291,0	0,690
291,5	0,687
292,0	0,685
292,5	0,683
293,0	0,680
293,5	0,678
294,0	0,676
294,5	0,674
295,0	0,672
295,5	0,670
296,0	0,668
296,5	0,667
297,0	0,666
297,5	0,664
298,0	0,661
298,5	0,660
299,0	0,657
299,5	0,655
300,0	0,652
300,5	0,650
301,0	0,649
301,5	0,647
302,0	0,646
302,5	0,644
303,0	0,642
303,5	0,641
304,0	0,639
304,5	0,638
305,0	0,636
305,5	0,634
306,0	0,633
306,5	0,631
307,0	0,629
307,5	0,626
308,0	0,624
308,5	0,623
309,0	0,621
309,5	0,620
310,0	0,618
310,5	0,616
311,0	0,615
311,5	0,614
312,0	0,612
312,5	0,610
313,0	0,608
313,5	0,607
314,0	0,605
314,5	0,604
315,0	0,602
315,5	0,601
316,0	0,599
316,5	0,598
317,0	0,597
317,5	0,596
318,0	0,594
318,5	0,592
319,0	0,590
319,5	0,589
320,0	0,588
320,5	0,586
321,0	0,584
321,5	0,582
322,0	0,581
322,5	0,579
323,0	0,577
323,5	0,575
324,0	0,573
324,5	0,572
325,0	0,571
325,5	0,570
326,0	0,568
326,5	0,567
327,0	0,566
327,5	0,564
328,0	0,563
328,5	0,562
329,0	0,561
329,5	0,559
330,0	0,558
330,5	0,557
331,0	0,555
331,5	0,554
332,0	0,552
332,5	0,550
333,0	0,549
333,5	0,548
334,0	0,546
334,5	0,545
335,0	0,544
335,5	0,543
336,0	0,542
336,5	0,540
337,0	0,539
337,5	0,538
338,0	0,537
338,5	0,536
339,0	0,534
339,5	0,533
340,0	0,533
340,5	0,532
341,0	0,531
341,5	0,530
342,0	0,529
342,5	0,529
343,0	0,528
343,5	0,527
344,0	0,526
344,5	0,525
345,0	0,524
345,5	0,524
346,0	0,523
346,5	0,522
347,0	0,521
347,5	0,521
348,0	0,520
348,5	0,520
349,0	0,519
349,5	0,519
350,0	0,518
350,5	0,518
351,0	0,517
351,5	0,516
352,0	0,516
352,5	0,516
353,0	0,516
353,5	0,516
354,0	0,515
354,5	0,516
355,0	0,515
355,5	0,515
356,0	0,515
356,5	0,515
357,0	0,515
357,5	0,515
358,0	0,514
358,5	0,514
359,0	0,513
359,5	0,514
360,0	0,513
360,5	0,513
361,0	0,512
361,5	0,512
362,0	0,512
362,5	0,511
363,0	0,510
363,5	0,510
364,0	0,510
364,5	0,510
365,0	0,510
365,5	0,510
366,0	0,510
366,5	0,510
367,0	0,510
367,5	0,510
368,0	0,509
368,5	0,509
369,0	0,509
369,5	0,508
370,0	0,507
370,5	0,507
371,0	0,506
371,5	0,505
372,0	0,504
372,5	0,504
373,0	0,504
373,5	0,503
374,0	0,503
374,5	0,502
375,0	0,502
375,5	0,502
376,0	0,501
376,5	0,501
377,0	0,500
377,5	0,499
378,0	0,498
378,5	0,498
379,0	0,498
379,5	0,497
380,0	0,497
380,5	0,497
381,0	0,496
381,5	0,496
382,0	0,496
382,5	0,495
383,0	0,495
383,5	0,494
384,0	0,494
384,5	0,493
385,0	0,492
385,5	0,492
386,0	0,491
386,5	0,490
387,0	0,489
387,5	0,489
388,0	0,488
388,5	0,487
389,0	0,487
389,5	0,486
390,0	0,486
390,5	0,486
391,0	0,485
391,5	0,485
392,0	0,484
392,5	0,484
393,0	0,483
393,5	0,482
394,0	0,482
394,5	0,482
395,0	0,482
395,5	0,481
396,0	0,481
396,5	0,480
397,0	0,480
397,5	0,480
398,0	0,478
398,5	0,478
399,0	0,477
399,5	0,476
400,0	0,475
400,5	0,475
401,0	0,475
401,5	0,475
402,0	0,475
402,5	0,474
403,0	0,474
403,5	0,473
404,0	0,472
404,5	0,471
405,0	0,470
405,5	0,470
406,0	0,469
406,5	0,468
407,0	0,468
407,5	0,468
408,0	0,468
408,5	0,468
409,0	0,467
409,5	0,466
410,0	0,466
410,5	0,465
411,0	0,464
411,5	0,464
412,0	0,463
412,5	0,463
413,0	0,463
413,5	0,463
414,0	0,463
414,5	0,462
415,0	0,462
415,5	0,462
416,0	0,461
416,5	0,461
417,0	0,460
417,5	0,459
418,0	0,458
418,5	0,457
419,0	0,457
419,5	0,457
420,0	0,457
420,5	0,457
421,0	0,457
421,5	0,456
422,0	0,455
422,5	0,455
423,0	0,454
423,5	0,453
424,0	0,453
424,5	0,452
425,0	0,452
425,5	0,452
426,0	0,451
426,5	0,451
427,0	0,450
427,5	0,450
428,0	0,449
428,5	0,449
429,0	0,448
429,5	0,448
430,0	0,448
430,5	0,448
431,0	0,447
431,5	0,447
432,0	0,447
432,5	0,446
433,0	0,446
433,5	0,445
434,0	0,445
434,5	0,445
435,0	0,444
435,5	0,444
436,0	0,443
436,5	0,443
437,0	0,443
437,5	0,443
438,0	0,443
438,5	0,442
439,0	0,442
439,5	0,441
440,0	0,440
440,5	0,440
441,0	0,440
441,5	0,439
442,0	0,439
442,5	0,438
443,0	0,438
443,5	0,438
444,0	0,438
444,5	0,438
445,0	0,438
445,5	0,438
446,0	0,437
446,5	0,437
447,0	0,436
447,5	0,435
448,0	0,435
448,5	0,435
449,0	0,434
449,5	0,434
450,0	0,434
450,5	0,434
451,0	0,434
451,5	0,433
452,0	0,434
452,5	0,434
453,0	0,434
453,5	0,434
454,0	0,433
454,5	0,433
455,0	0,432
455,5	0,432
456,0	0,432
456,5	0,431
457,0	0,432
457,5	0,432
458,0	0,433
458,5	0,433
459,0	0,433
459,5	0,433
460,0	0,432
460,5	0,432
461,0	0,431
461,5	0,431
462,0	0,431
462,5	0,431
463,0	0,431
463,5	0,431
464,0	0,431
464,5	0,432
465,0	0,432
465,5	0,433
466,0	0,433
466,5	0,433
467,0	0,433
467,5	0,432
468,0	0,432
468,5	0,432
469,0	0,432
469,5	0,432
470,0	0,433
470,5	0,433
471,0	0,434
471,5	0,434
472,0	0,435
472,5	0,435
473,0	0,436
473,5	0,436
474,0	0,436
474,5	0,437
475,0	0,437
475,5	0,438
476,0	0,438
476,5	0,439
477,0	0,439
477,5	0,440
478,0	0,441
478,5	0,442
479,0	0,443
479,5	0,444
480,0	0,445
480,5	0,446
481,0	0,447
481,5	0,449
482,0	0,450
482,5	0,452
483,0	0,452
483,5	0,453
484,0	0,454
484,5	0,454
485,0	0,455
485,5	0,456
486,0	0,458
486,5	0,459
487,0	0,461
487,5	0,463
488,0	0,464
488,5	0,466
489,0	0,468
489,5	0,470
490,0	0,472
490,5	0,475
491,0	0,477
491,5	0,479
492,0	0,481
492,5	0,483
493,0	0,485
493,5	0,487
494,0	0,489
494,5	0,492
495,0	0,495
495,5	0,498
496,0	0,501
496,5	0,504
497,0	0,507
497,5	0,510
498,0	0,513
498,5	0,516
499,0	0,518
499,5	0,522
500,0	0,525
500,5	0,528
501,0	0,531
501,5	0,534
502,0	0,537
502,5	0,540
503,0	0,543
503,5	0,546
504,0	0,549
504,5	0,552
505,0	0,554
505,5	0,557
506,0	0,560
506,5	0,563
507,0	0,566
507,5	0,568
508,0	0,571
508,5	0,574
509,0	0,577
509,5	0,579
510,0	0,582
510,5	0,585
511,0	0,587
511,5	0,590
512,0	0,592
512,5	0,594
513,0	0,596
513,5	0,597
514,0	0,599
514,5	0,601
515,0	0,603
515,5	0,604
516,0	0,605
516,5	0,606
517,0	0,607
517,5	0,607
518,0	0,608
518,5	0,609
519,0	0,609
519,5	0,611
520,0	0,612
520,5	0,612
521,0	0,613
521,5	0,614
522,0	0,614
522,5	0,614
523,0	0,614
523,5	0,614
524,0	0,614
524,5	0,614
525,0	0,613
525,5	0,613
526,0	0,612
526,5	0,612
527,0	0,612
527,5	0,611
528,0	0,610
528,5	0,610
529,0	0,609
529,5	0,608
530,0	0,607
530,5	0,605
531,0	0,604
531,5	0,604
532,0	0,603
532,5	0,602
533,0	0,601
533,5	0,600
534,0	0,598
534,5	0,596
535,0	0,594
535,5	0,592
536,0	0,591
536,5	0,589
537,0	0,588
537,5	0,586
538,0	0,584
538,5	0,582
539,0	0,581
539,5	0,579
540,0	0,576
540,5	0,574
541,0	0,571
541,5	0,569
542,0	0,567
542,5	0,565
543,0	0,562
543,5	0,561
544,0	0,560
544,5	0,557
545,0	0,555
545,5	0,552
546,0	0,549
546,5	0,547
547,0	0,544
547,5	0,542
548,0	0,539
548,5	0,536
549,0	0,534
549,5	0,532
550,0	0,529
550,5	0,526
551,0	0,524
551,5	0,521
552,0	0,519
552,5	0,516
553,0	0,513
553,5	0,510
554,0	0,507
554,5	0,504
555,0	0,500
555,5	0,497
556,0	0,494
556,5	0,491
557,0	0,488
557,5	0,485
558,0	0,482
558,5	0,480
559,0	0,477
559,5	0,474
560,0	0,471
560,5	0,469
561,0	0,467
561,5	0,464
562,0	0,461
562,5	0,459
563,0	0,456
563,5	0,454
564,0	0,452
564,5	0,448
565,0	0,446
565,5	0,443
566,0	0,441
566,5	0,437
567,0	0,435
567,5	0,433
568,0	0,431
568,5	0,430
569,0	0,428
569,5	0,425
570,0	0,424
570,5	0,422
571,0	0,420
571,5	0,418
572,0	0,415
572,5	0,414
573,0	0,412
573,5	0,410
574,0	0,408
574,5	0,407
575,0	0,405
575,5	0,403
576,0	0,402
576,5	0,401
577,0	0,399
577,5	0,398
578,0	0,396
578,5	0,395
579,0	0,393
579,5	0,392
580,0	0,390
580,5	0,388
581,0	0,387
581,5	0,387
582,0	0,386
582,5	0,385
583,0	0,385
583,5	0,384
584,0	0,384
584,5	0,384
585,0	0,383
585,5	0,383
586,0	0,383
586,5	0,383
587,0	0,382
587,5	0,382
588,0	0,381
588,5	0,381
589,0	0,381
589,5	0,381
590,0	0,381
590,5	0,380
591,0	0,380
591,5	0,380
592,0	0,380
592,5	0,381
593,0	0,381
593,5	0,381
594,0	0,381
594,5	0,382
595,0	0,382
595,5	0,383
596,0	0,383
596,5	0,384
597,0	0,384
597,5	0,384
598,0	0,385
598,5	0,385
599,0	0,386
599,5	0,387
600,0	0,388
600,5	0,388
601,0	0,390
601,5	0,391
602,0	0,393
602,5	0,395
603,0	0,397
603,5	0,398
604,0	0,399
604,5	0,401
605,0	0,402
605,5	0,402
606,0	0,404
606,5	0,406
607,0	0,408
607,5	0,410
608,0	0,412
608,5	0,414
609,0	0,415
609,5	0,417
610,0	0,418
610,5	0,420
611,0	0,422
611,5	0,424
612,0	0,427
612,5	0,429
613,0	0,432
613,5	0,434
614,0	0,436
614,5	0,438
615,0	0,440
615,5	0,442
616,0	0,445
616,5	0,448
617,0	0,452
617,5	0,455
618,0	0,459
618,5	0,462
619,0	0,464
619,5	0,467
620,0	0,468
620,5	0,471
621,0	0,474
621,5	0,476
622,0	0,478
622,5	0,481
623,0	0,483
623,5	0,487
624,0	0,491
624,5	0,496
625,0	0,500
625,5	0,505
626,0	0,509
626,5	0,513
627,0	0,516
627,5	0,519
628,0	0,521
628,5	0,524
629,0	0,527
629,5	0,531
630,0	0,535
630,5	0,540
631,0	0,545
631,5	0,550
632,0	0,554
632,5	0,559
633,0	0,562
633,5	0,566
634,0	0,569
634,5	0,573
635,0	0,577
635,5	0,581
636,0	0,584
636,5	0,587
637,0	0,591
637,5	0,596
638,0	0,600
638,5	0,604
639,0	0,610
639,5	0,615
640,0	0,620
640,5	0,626
641,0	0,630
641,5	0,634
642,0	0,638
642,5	0,642
643,0	0,646
643,5	0,650
644,0	0,656
644,5	0,661
645,0	0,667
645,5	0,672
646,0	0,676
646,5	0,681
647,0	0,684
647,5	0,687
648,0	0,692
648,5	0,695
649,0	0,700
649,5	0,703
650,0	0,708
650,5	0,713
651,0	0,719
651,5	0,724
652,0	0,729
652,5	0,735
653,0	0,740
653,5	0,743
654,0	0,747
654,5	0,749
655,0	0,754
655,5	0,759
656,0	0,764
656,5	0,769
657,0	0,774
657,5	0,779
658,0	0,784
658,5	0,787
659,0	0,790
659,5	0,793
660,0	0,795
660,5	0,799
661,0	0,803
661,5	0,808
662,0	0,812
662,5	0,815
663,0	0,818
663,5	0,821
664,0	0,825
664,5	0,829
665,0	0,834
665,5	0,839
666,0	0,844
666,5	0,847
667,0	0,850
667,5	0,853
668,0	0,856
668,5	0,859
669,0	0,862
669,5	0,864
670,0	0,867
670,5	0,871
671,0	0,875
671,5	0,877
672,0	0,880
672,5	0,883
673,0	0,886
673,5	0,888
674,0	0,889
674,5	0,891
675,0	0,892
675,5	0,895
676,0	0,897
676,5	0,898
677,0	0,899
677,5	0,902
678,0	0,903
678,5	0,906
679,0	0,908
679,5	0,909
680,0	0,910
680,5	0,911
681,0	0,912
681,5	0,914
682,0	0,913
682,5	0,913
683,0	0,913
683,5	0,915
684,0	0,915
684,5	0,916
685,0	0,917
685,5	0,918
686,0	0,920
686,5	0,922
687,0	0,922
687,5	0,922
688,0	0,924
688,5	0,925
689,0	0,924
689,5	0,924
690,0	0,923
690,5	0,923
691,0	0,923
691,5	0,920
692,0	0,919
692,5	0,920
693,0	0,921
693,5	0,920
694,0	0,921
694,5	0,919
695,0	0,918
695,5	0,917
696,0	0,917
696,5	0,916
697,0	0,916
697,5	0,917
698,0	0,916
698,5	0,916
699,0	0,914
699,5	0,911
700,0	0,911
700,5	0,909
701,0	0,909
701,5	0,906
702,0	0,904
702,5	0,902
703,0	0,899
703,5	0,897
704,0	0,893
704,5	0,892
705,0	0,892
705,5	0,891
706,0	0,888
706,5	0,886
707,0	0,884
707,5	0,882
708,0	0,877
708,5	0,873
709,0	0,869
709,5	0,867
710,0	0,866
710,5	0,865
711,0	0,862
711,5	0,861
712,0	0,858
712,5	0,855
713,0	0,849
713,5	0,846
714,0	0,843
714,5	0,842
715,0	0,841
715,5	0,839
716,0	0,837
716,5	0,834
717,0	0,830
717,5	0,825
718,0	0,820
718,5	0,816
719,0	0,813
719,5	0,809
720,0	0,807
720,5	0,805
721,0	0,803
721,5	0,801
722,0	0,799
722,5	0,797
723,0	0,794
723,5	0,792
724,0	0,791
724,5	0,788
725,0	0,785
725,5	0,784
726,0	0,781
726,5	0,776
727,0	0,770
727,5	0,766
728,0	0,762
728,5	0,759
729,0	0,755
729,5	0,752
730,0	0,748
730,5	0,746
731,0	0,742
731,5	0,737
732,0	0,735
732,5	0,734
733,0	0,731
733,5	0,728
734,0	0,723
734,5	0,718
735,0	0,712
735,5	0,707
736,0	0,702
736,5	0,699
737,0	0,696
737,5	0,694
738,0	0,690
738,5	0,688
739,0	0,684
739,5	0,681
740,0	0,677
740,5	0,674
741,0	0,671
741,5	0,667
742,0	0,664
742,5	0,660
743,0	0,656
743,5	0,653
744,0	0,649
744,5	0,645
745,0	0,643
745,5	0,639
746,0	0,634
746,5	0,629
747,0	0,626
747,5	0,622
748,0	0,619
748,5	0,617
749,0	0,614
749,5	0,611
750,0	0,608
750,5	0,603
751,0	0,600
751,5	0,596
752,0	0,594
752,5	0,590
753,0	0,586
753,5	0,581
754,0	0,578
754,5	0,574
755,0	0,570
755,5	0,566
756,0	0,565
756,5	0,562
757,0	0,558
757,5	0,553
758,0	0,548
758,5	0,542
759,0	0,538
759,5	0,533
760,0	0,531
760,5	0,528
761,0	0,526
761,5	0,523
762,0	0,520
762,5	0,516
763,0	0,513
763,5	0,509
764,0	0,507
764,5	0,505
765,0	0,503
765,5	0,501
766,0	0,497
766,5	0,494
767,0	0,489
767,5	0,485
768,0	0,480
768,5	0,476
769,0	0,472
769,5	0,468
770,0	0,466
770,5	0,463
771,0	0,460
771,5	0,457
772,0	0,455
772,5	0,451
773,0	0,446
773,5	0,443
774,0	0,437
774,5	0,433
775,0	0,431
775,5	0,427
776,0	0,425
776,5	0,425
777,0	0,423
777,5	0,420
778,0	0,418
778,5	0,415
779,0	0,412
779,5	0,409
780,0	0,406
780,5	0,401
781,0	0,398
781,5	0,396
782,0	0,393
782,5	0,389
783,0	0,386
783,5	0,384
784,0	0,381
784,5	0,379
785,0	0,375
785,5	0,371
786,0	0,369
786,5	0,367
787,0	0,365
787,5	0,362
788,0	0,360
788,5	0,359
789,0	0,357
789,5	0,354
790,0	0,351
790,5	0,348
791,0	0,347
791,5	0,344
792,0	0,340
792,5	0,337
793,0	0,334
793,5	0,331
794,0	0,328
794,5	0,325
795,0	0,322
795,5	0,321
796,0	0,318
796,5	0,316
797,0	0,313
797,5	0,310
798,0	0,307
798,5	0,305
799,0	0,303
799,5	0,300
800,0	0,298
800,5	0,296
801,0	0,293
801,5	0,290
802,0	0,286
802,5	0,283
803,0	0,282
803,5	0,279
804,0	0,278
804,5	0,276
805,0	0,275
805,5	0,273
806,0	0,270
806,5	0,266
807,0	0,264
807,5	0,261
808,0	0,259
808,5	0,257
809,0	0,255
809,5	0,254
810,0	0,253
810,5	0,252
811,0	0,250
811,5	0,247
812,0	0,244
812,5	0,241
813,0	0,238
813,5	0,235
814,0	0,233
814,5	0,232
815,0	0,233
815,5	0,233
816,0	0,231
816,5	0,229
817,0	0,228
817,5	0,227
818,0	0,225
818,5	0,223
819,0	0,221
819,5	0,220
820,0	0,218
820,5	0,215
821,0	0,212
821,5	0,209
822,0	0,207
822,5	0,206
823,0	0,204
823,5	0,203
824,0	0,202
824,5	0,202
825,0	0,201
825,5	0,200
826,0	0,198
826,5	0,197
827,0	0,196
827,5	0,195
828,0	0,193
828,5	0,191
829,0	0,189
829,5	0,187
830,0	0,185
830,5	0,182
831,0	0,179
831,5	0,178
832,0	0,176
832,5	0,173
833,0	0,172
833,5	0,171
834,0	0,170
834,5	0,169
835,0	0,168
835,5	0,168
836,0	0,165
836,5	0,162
837,0	0,159
837,5	0,159
838,0	0,159
838,5	0,159
839,0	0,158
839,5	0,159
840,0	0,160
840,5	0,160
841,0	0,157
841,5	0,153
842,0	0,150
842,5	0,147
843,0	0,145
843,5	0,144
844,0	0,144
844,5	0,145
845,0	0,146
845,5	0,146
846,0	0,145
846,5	0,143
847,0	0,139
847,5	0,136
848,0	0,133
848,5	0,132
849,0	0,132
849,5	0,132
850,0	0,133

