91119
09/11/2019 19:58
Longitud de onda (nm)	10mm Absorbance
//WLCalib: Shift 	0,23667	
//WLCalib: 261S 	-0,08000	
//WLCalib: 362S 	-0,58000	
//WLCalib: 484S 	-0,83000	
//WLCalib: 529S 	-0,65000	
//WLCalib: 823S 	-0,29000	
//QSpecEnd: 
190,0	1,516
190,5	1,568
191,0	1,615
191,5	1,656
192,0	1,689
192,5	1,715
193,0	1,738
193,5	1,756
194,0	1,775
194,5	1,794
195,0	1,813
195,5	1,830
196,0	1,844
196,5	1,856
197,0	1,861
197,5	1,860
198,0	1,855
198,5	1,847
199,0	1,839
199,5	1,834
200,0	1,840
200,5	1,842
201,0	1,852
201,5	1,868
202,0	1,888
202,5	1,912
203,0	1,939
203,5	1,966
204,0	1,993
204,5	2,018
205,0	2,040
205,5	2,051
206,0	2,061
206,5	2,070
207,0	2,077
207,5	2,082
208,0	2,087
208,5	2,091
209,0	2,095
209,5	2,094
210,0	2,091
210,5	2,088
211,0	2,085
211,5	2,085
212,0	2,083
212,5	2,081
213,0	2,081
213,5	2,079
214,0	2,074
214,5	2,068
215,0	2,068
215,5	2,073
216,0	2,085
216,5	2,103
217,0	2,124
217,5	2,149
218,0	2,178
218,5	2,203
219,0	2,231
219,5	2,261
220,0	2,294
220,5	2,327
221,0	2,360
221,5	2,391
222,0	2,419
222,5	2,468
223,0	2,489
223,5	2,506
224,0	2,501
224,5	2,483
225,0	2,433
225,5	2,347
226,0	2,236
226,5	2,116
227,0	1,994
227,5	1,898
228,0	1,787
228,5	1,710
229,0	1,645
229,5	1,596
230,0	1,546
230,5	1,496
231,0	1,453
231,5	1,413
232,0	1,375
232,5	1,340
233,0	1,309
233,5	1,282
234,0	1,256
234,5	1,233
235,0	1,213
235,5	1,195
236,0	1,179
236,5	1,165
237,0	1,151
237,5	1,136
238,0	1,123
238,5	1,110
239,0	1,098
239,5	1,086
240,0	1,074
240,5	1,063
241,0	1,052
241,5	1,041
242,0	1,029
242,5	1,016
243,0	1,001
243,5	0,985
244,0	0,967
244,5	0,947
245,0	0,924
245,5	0,901
246,0	0,877
246,5	0,854
247,0	0,832
247,5	0,811
248,0	0,790
248,5	0,769
249,0	0,747
249,5	0,725
250,0	0,703
250,5	0,681
251,0	0,661
251,5	0,641
252,0	0,624
252,5	0,608
253,0	0,593
253,5	0,579
254,0	0,567
254,5	0,557
255,0	0,546
255,5	0,536
256,0	0,527
256,5	0,519
257,0	0,511
257,5	0,503
258,0	0,496
258,5	0,489
259,0	0,483
259,5	0,478
260,0	0,473
260,5	0,468
261,0	0,464
261,5	0,460
262,0	0,455
262,5	0,451
263,0	0,447
263,5	0,443
264,0	0,439
264,5	0,436
265,0	0,432
265,5	0,428
266,0	0,424
266,5	0,420
267,0	0,417
267,5	0,413
268,0	0,409
268,5	0,405
269,0	0,401
269,5	0,397
270,0	0,394
270,5	0,391
271,0	0,388
271,5	0,385
272,0	0,382
272,5	0,379
273,0	0,377
273,5	0,375
274,0	0,373
274,5	0,370
275,0	0,368
275,5	0,365
276,0	0,362
276,5	0,358
277,0	0,355
277,5	0,352
278,0	0,349
278,5	0,347
279,0	0,345
279,5	0,342
280,0	0,340
280,5	0,338
281,0	0,336
281,5	0,333
282,0	0,331
282,5	0,329
283,0	0,327
283,5	0,325
284,0	0,323
284,5	0,321
285,0	0,319
285,5	0,317
286,0	0,315
286,5	0,313
287,0	0,311
287,5	0,309
288,0	0,307
288,5	0,305
289,0	0,304
289,5	0,303
290,0	0,302
290,5	0,300
291,0	0,299
291,5	0,297
292,0	0,296
292,5	0,294
293,0	0,293
293,5	0,291
294,0	0,290
294,5	0,289
295,0	0,288
295,5	0,287
296,0	0,286
296,5	0,285
297,0	0,284
297,5	0,283
298,0	0,282
298,5	0,281
299,0	0,280
299,5	0,278
300,0	0,277
300,5	0,276
301,0	0,275
301,5	0,274
302,0	0,273
302,5	0,272
303,0	0,271
303,5	0,270
304,0	0,270
304,5	0,270
305,0	0,269
305,5	0,269
306,0	0,268
306,5	0,267
307,0	0,266
307,5	0,265
308,0	0,264
308,5	0,263
309,0	0,262
309,5	0,262
310,0	0,261
310,5	0,260
311,0	0,259
311,5	0,258
312,0	0,257
312,5	0,257
313,0	0,256
313,5	0,256
314,0	0,256
314,5	0,255
315,0	0,255
315,5	0,254
316,0	0,253
316,5	0,252
317,0	0,252
317,5	0,251
318,0	0,251
318,5	0,250
319,0	0,249
319,5	0,248
320,0	0,248
320,5	0,247
321,0	0,246
321,5	0,246
322,0	0,246
322,5	0,245
323,0	0,245
323,5	0,244
324,0	0,243
324,5	0,242
325,0	0,242
325,5	0,241
326,0	0,240
326,5	0,240
327,0	0,240
327,5	0,240
328,0	0,239
328,5	0,239
329,0	0,238
329,5	0,238
330,0	0,237
330,5	0,236
331,0	0,236
331,5	0,235
332,0	0,235
332,5	0,234
333,0	0,233
333,5	0,233
334,0	0,233
334,5	0,233
335,0	0,232
335,5	0,232
336,0	0,232
336,5	0,232
337,0	0,231
337,5	0,231
338,0	0,230
338,5	0,230
339,0	0,229
339,5	0,229
340,0	0,228
340,5	0,227
341,0	0,227
341,5	0,227
342,0	0,227
342,5	0,227
343,0	0,226
343,5	0,226
344,0	0,225
344,5	0,225
345,0	0,224
345,5	0,224
346,0	0,225
346,5	0,225
347,0	0,225
347,5	0,225
348,0	0,224
348,5	0,224
349,0	0,224
349,5	0,223
350,0	0,223
350,5	0,223
351,0	0,223
351,5	0,223
352,0	0,223
352,5	0,223
353,0	0,223
353,5	0,223
354,0	0,222
354,5	0,222
355,0	0,221
355,5	0,222
356,0	0,222
356,5	0,221
357,0	0,221
357,5	0,221
358,0	0,221
358,5	0,221
359,0	0,220
359,5	0,220
360,0	0,221
360,5	0,221
361,0	0,221
361,5	0,220
362,0	0,220
362,5	0,220
363,0	0,220
363,5	0,220
364,0	0,220
364,5	0,220
365,0	0,219
365,5	0,219
366,0	0,219
366,5	0,219
367,0	0,218
367,5	0,218
368,0	0,218
368,5	0,218
369,0	0,218
369,5	0,218
370,0	0,218
370,5	0,218
371,0	0,218
371,5	0,218
372,0	0,217
372,5	0,216
373,0	0,216
373,5	0,216
374,0	0,216
374,5	0,216
375,0	0,215
375,5	0,215
376,0	0,215
376,5	0,215
377,0	0,214
377,5	0,214
378,0	0,214
378,5	0,214
379,0	0,214
379,5	0,213
380,0	0,213
380,5	0,213
381,0	0,213
381,5	0,212
382,0	0,212
382,5	0,212
383,0	0,212
383,5	0,212
384,0	0,211
384,5	0,211
385,0	0,211
385,5	0,210
386,0	0,210
386,5	0,209
387,0	0,209
387,5	0,209
388,0	0,208
388,5	0,208
389,0	0,208
389,5	0,208
390,0	0,208
390,5	0,208
391,0	0,208
391,5	0,208
392,0	0,208
392,5	0,208
393,0	0,207
393,5	0,207
394,0	0,207
394,5	0,207
395,0	0,207
395,5	0,207
396,0	0,207
396,5	0,206
397,0	0,206
397,5	0,205
398,0	0,205
398,5	0,205
399,0	0,204
399,5	0,205
400,0	0,204
400,5	0,204
401,0	0,204
401,5	0,204
402,0	0,204
402,5	0,203
403,0	0,203
403,5	0,203
404,0	0,203
404,5	0,203
405,0	0,203
405,5	0,203
406,0	0,203
406,5	0,203
407,0	0,203
407,5	0,202
408,0	0,202
408,5	0,202
409,0	0,202
409,5	0,202
410,0	0,202
410,5	0,201
411,0	0,201
411,5	0,201
412,0	0,201
412,5	0,201
413,0	0,200
413,5	0,200
414,0	0,201
414,5	0,200
415,0	0,200
415,5	0,200
416,0	0,199
416,5	0,199
417,0	0,199
417,5	0,199
418,0	0,198
418,5	0,198
419,0	0,198
419,5	0,198
420,0	0,198
420,5	0,198
421,0	0,198
421,5	0,197
422,0	0,197
422,5	0,197
423,0	0,197
423,5	0,196
424,0	0,196
424,5	0,196
425,0	0,196
425,5	0,196
426,0	0,197
426,5	0,196
427,0	0,196
427,5	0,196
428,0	0,196
428,5	0,196
429,0	0,195
429,5	0,195
430,0	0,194
430,5	0,194
431,0	0,194
431,5	0,194
432,0	0,194
432,5	0,194
433,0	0,195
433,5	0,195
434,0	0,194
434,5	0,194
435,0	0,194
435,5	0,193
436,0	0,193
436,5	0,193
437,0	0,193
437,5	0,193
438,0	0,193
438,5	0,193
439,0	0,193
439,5	0,193
440,0	0,193
440,5	0,192
441,0	0,192
441,5	0,191
442,0	0,191
442,5	0,192
443,0	0,192
443,5	0,192
444,0	0,192
444,5	0,192
445,0	0,192
445,5	0,191
446,0	0,190
446,5	0,190
447,0	0,190
447,5	0,190
448,0	0,190
448,5	0,190
449,0	0,190
449,5	0,190
450,0	0,190
450,5	0,190
451,0	0,190
451,5	0,190
452,0	0,191
452,5	0,190
453,0	0,190
453,5	0,190
454,0	0,190
454,5	0,190
455,0	0,190
455,5	0,190
456,0	0,190
456,5	0,190
457,0	0,191
457,5	0,191
458,0	0,191
458,5	0,191
459,0	0,191
459,5	0,191
460,0	0,190
460,5	0,190
461,0	0,190
461,5	0,190
462,0	0,190
462,5	0,190
463,0	0,190
463,5	0,190
464,0	0,189
464,5	0,190
465,0	0,190
465,5	0,190
466,0	0,191
466,5	0,191
467,0	0,191
467,5	0,192
468,0	0,192
468,5	0,192
469,0	0,191
469,5	0,191
470,0	0,191
470,5	0,191
471,0	0,191
471,5	0,191
472,0	0,191
472,5	0,191
473,0	0,192
473,5	0,192
474,0	0,192
474,5	0,192
475,0	0,192
475,5	0,193
476,0	0,194
476,5	0,194
477,0	0,194
477,5	0,195
478,0	0,195
478,5	0,195
479,0	0,194
479,5	0,194
480,0	0,194
480,5	0,194
481,0	0,195
481,5	0,195
482,0	0,196
482,5	0,196
483,0	0,197
483,5	0,197
484,0	0,197
484,5	0,198
485,0	0,199
485,5	0,200
486,0	0,201
486,5	0,201
487,0	0,201
487,5	0,202
488,0	0,202
488,5	0,202
489,0	0,203
489,5	0,204
490,0	0,204
490,5	0,205
491,0	0,206
491,5	0,206
492,0	0,207
492,5	0,207
493,0	0,208
493,5	0,209
494,0	0,210
494,5	0,211
495,0	0,212
495,5	0,213
496,0	0,214
496,5	0,215
497,0	0,216
497,5	0,217
498,0	0,218
498,5	0,219
499,0	0,219
499,5	0,221
500,0	0,222
500,5	0,223
501,0	0,223
501,5	0,225
502,0	0,226
502,5	0,226
503,0	0,228
503,5	0,228
504,0	0,229
504,5	0,230
505,0	0,231
505,5	0,232
506,0	0,233
506,5	0,234
507,0	0,236
507,5	0,237
508,0	0,238
508,5	0,238
509,0	0,239
509,5	0,240
510,0	0,240
510,5	0,242
511,0	0,242
511,5	0,243
512,0	0,244
512,5	0,244
513,0	0,244
513,5	0,245
514,0	0,245
514,5	0,246
515,0	0,246
515,5	0,247
516,0	0,247
516,5	0,248
517,0	0,248
517,5	0,249
518,0	0,248
518,5	0,248
519,0	0,248
519,5	0,248
520,0	0,248
520,5	0,248
521,0	0,248
521,5	0,248
522,0	0,248
522,5	0,249
523,0	0,249
523,5	0,249
524,0	0,250
524,5	0,250
525,0	0,250
525,5	0,250
526,0	0,249
526,5	0,248
527,0	0,248
527,5	0,247
528,0	0,247
528,5	0,246
529,0	0,246
529,5	0,246
530,0	0,246
530,5	0,246
531,0	0,245
531,5	0,245
532,0	0,245
532,5	0,244
533,0	0,243
533,5	0,242
534,0	0,242
534,5	0,241
535,0	0,241
535,5	0,241
536,0	0,241
536,5	0,241
537,0	0,241
537,5	0,240
538,0	0,240
538,5	0,239
539,0	0,238
539,5	0,238
540,0	0,237
540,5	0,237
541,0	0,237
541,5	0,237
542,0	0,236
542,5	0,236
543,0	0,236
543,5	0,235
544,0	0,235
544,5	0,234
545,0	0,233
545,5	0,232
546,0	0,231
546,5	0,231
547,0	0,231
547,5	0,231
548,0	0,231
548,5	0,230
549,0	0,229
549,5	0,229
550,0	0,228
550,5	0,227
551,0	0,227
551,5	0,226
552,0	0,226
552,5	0,226
553,0	0,226
553,5	0,226
554,0	0,226
554,5	0,226
555,0	0,226
555,5	0,226
556,0	0,226
556,5	0,225
557,0	0,225
557,5	0,225
558,0	0,224
558,5	0,224
559,0	0,224
559,5	0,224
560,0	0,224
560,5	0,224
561,0	0,224
561,5	0,223
562,0	0,223
562,5	0,223
563,0	0,223
563,5	0,224
564,0	0,224
564,5	0,224
565,0	0,224
565,5	0,224
566,0	0,224
566,5	0,223
567,0	0,222
567,5	0,222
568,0	0,222
568,5	0,222
569,0	0,223
569,5	0,224
570,0	0,224
570,5	0,224
571,0	0,224
571,5	0,224
572,0	0,224
572,5	0,224
573,0	0,224
573,5	0,224
574,0	0,224
574,5	0,225
575,0	0,224
575,5	0,223
576,0	0,223
576,5	0,223
577,0	0,223
577,5	0,224
578,0	0,225
578,5	0,226
579,0	0,226
579,5	0,226
580,0	0,226
580,5	0,225
581,0	0,225
581,5	0,225
582,0	0,226
582,5	0,227
583,0	0,228
583,5	0,228
584,0	0,228
584,5	0,228
585,0	0,227
585,5	0,227
586,0	0,227
586,5	0,227
587,0	0,228
587,5	0,229
588,0	0,229
588,5	0,230
589,0	0,230
589,5	0,231
590,0	0,231
590,5	0,231
591,0	0,232
591,5	0,232
592,0	0,232
592,5	0,232
593,0	0,232
593,5	0,232
594,0	0,232
594,5	0,232
595,0	0,232
595,5	0,233
596,0	0,233
596,5	0,233
597,0	0,233
597,5	0,234
598,0	0,235
598,5	0,235
599,0	0,236
599,5	0,238
600,0	0,239
600,5	0,239
601,0	0,239
601,5	0,239
602,0	0,239
602,5	0,240
603,0	0,240
603,5	0,240
604,0	0,240
604,5	0,240
605,0	0,240
605,5	0,240
606,0	0,240
606,5	0,241
607,0	0,242
607,5	0,243
608,0	0,243
608,5	0,244
609,0	0,244
609,5	0,244
610,0	0,244
610,5	0,244
611,0	0,244
611,5	0,244
612,0	0,244
612,5	0,244
613,0	0,244
613,5	0,244
614,0	0,244
614,5	0,244
615,0	0,245
615,5	0,246
616,0	0,247
616,5	0,248
617,0	0,249
617,5	0,249
618,0	0,248
618,5	0,248
619,0	0,248
619,5	0,248
620,0	0,248
620,5	0,249
621,0	0,250
621,5	0,251
622,0	0,252
622,5	0,252
623,0	0,252
623,5	0,252
624,0	0,252
624,5	0,251
625,0	0,251
625,5	0,251
626,0	0,251
626,5	0,252
627,0	0,252
627,5	0,252
628,0	0,253
628,5	0,253
629,0	0,253
629,5	0,255
630,0	0,255
630,5	0,254
631,0	0,254
631,5	0,254
632,0	0,254
632,5	0,254
633,0	0,255
633,5	0,254
634,0	0,254
634,5	0,254
635,0	0,254
635,5	0,254
636,0	0,255
636,5	0,255
637,0	0,256
637,5	0,257
638,0	0,256
638,5	0,254
639,0	0,253
639,5	0,253
640,0	0,254
640,5	0,254
641,0	0,256
641,5	0,256
642,0	0,257
642,5	0,257
643,0	0,256
643,5	0,254
644,0	0,254
644,5	0,255
645,0	0,255
645,5	0,255
646,0	0,255
646,5	0,254
647,0	0,254
647,5	0,254
648,0	0,254
648,5	0,254
649,0	0,255
649,5	0,255
650,0	0,255
650,5	0,255
651,0	0,254
651,5	0,253
652,0	0,254
652,5	0,255
653,0	0,255
653,5	0,255
654,0	0,254
654,5	0,253
655,0	0,252
655,5	0,251
656,0	0,250
656,5	0,250
657,0	0,250
657,5	0,250
658,0	0,250
658,5	0,249
659,0	0,248
659,5	0,247
660,0	0,247
660,5	0,246
661,0	0,246
661,5	0,247
662,0	0,247
662,5	0,247
663,0	0,246
663,5	0,246
664,0	0,245
664,5	0,245
665,0	0,244
665,5	0,243
666,0	0,242
666,5	0,241
667,0	0,240
667,5	0,240
668,0	0,239
668,5	0,239
669,0	0,239
669,5	0,238
670,0	0,237
670,5	0,236
671,0	0,235
671,5	0,234
672,0	0,233
672,5	0,233
673,0	0,233
673,5	0,234
674,0	0,235
674,5	0,236
675,0	0,236
675,5	0,236
676,0	0,235
676,5	0,234
677,0	0,233
677,5	0,231
678,0	0,230
678,5	0,228
679,0	0,228
679,5	0,227
680,0	0,227
680,5	0,225
681,0	0,225
681,5	0,225
682,0	0,225
682,5	0,225
683,0	0,224
683,5	0,223
684,0	0,222
684,5	0,220
685,0	0,219
685,5	0,217
686,0	0,216
686,5	0,215
687,0	0,214
687,5	0,214
688,0	0,214
688,5	0,214
689,0	0,214
689,5	0,214
690,0	0,214
690,5	0,214
691,0	0,214
691,5	0,214
692,0	0,212
692,5	0,211
693,0	0,210
693,5	0,208
694,0	0,207
694,5	0,205
695,0	0,204
695,5	0,204
696,0	0,204
696,5	0,203
697,0	0,202
697,5	0,202
698,0	0,202
698,5	0,201
699,0	0,201
699,5	0,200
700,0	0,199
700,5	0,198
701,0	0,196
701,5	0,195
702,0	0,194
702,5	0,193
703,0	0,192
703,5	0,192
704,0	0,193
704,5	0,192
705,0	0,192
705,5	0,191
706,0	0,190
706,5	0,190
707,0	0,188
707,5	0,186
708,0	0,185
708,5	0,185
709,0	0,185
709,5	0,184
710,0	0,183
710,5	0,182
711,0	0,181
711,5	0,179
712,0	0,177
712,5	0,177
713,0	0,177
713,5	0,176
714,0	0,174
714,5	0,174
715,0	0,174
715,5	0,173
716,0	0,172
716,5	0,171
717,0	0,171
717,5	0,172
718,0	0,172
718,5	0,172
719,0	0,171
719,5	0,171
720,0	0,170
720,5	0,169
721,0	0,168
721,5	0,167
722,0	0,166
722,5	0,165
723,0	0,164
723,5	0,163
724,0	0,163
724,5	0,162
725,0	0,161
725,5	0,161
726,0	0,161
726,5	0,160
727,0	0,159
727,5	0,158
728,0	0,157
728,5	0,157
729,0	0,156
729,5	0,155
730,0	0,155
730,5	0,156
731,0	0,156
731,5	0,155
732,0	0,154
732,5	0,153
733,0	0,153
733,5	0,152
734,0	0,149
734,5	0,148
735,0	0,147
735,5	0,147
736,0	0,146
736,5	0,146
737,0	0,146
737,5	0,146
738,0	0,146
738,5	0,145
739,0	0,144
739,5	0,144
740,0	0,144
740,5	0,143
741,0	0,142
741,5	0,140
742,0	0,139
742,5	0,137
743,0	0,136
743,5	0,136
744,0	0,136
744,5	0,137
745,0	0,136
745,5	0,135
746,0	0,134
746,5	0,134
747,0	0,134
747,5	0,133
748,0	0,134
748,5	0,134
749,0	0,133
749,5	0,133
750,0	0,131
750,5	0,130
751,0	0,129
751,5	0,130
752,0	0,131
752,5	0,131
753,0	0,131
753,5	0,130
754,0	0,130
754,5	0,129
755,0	0,127
755,5	0,126
756,0	0,125
756,5	0,126
757,0	0,127
757,5	0,127
758,0	0,126
758,5	0,125
759,0	0,124
759,5	0,123
760,0	0,121
760,5	0,120
761,0	0,121
761,5	0,122
762,0	0,123
762,5	0,123
763,0	0,122
763,5	0,120
764,0	0,119
764,5	0,116
765,0	0,115
765,5	0,114
766,0	0,114
766,5	0,114
767,0	0,114
767,5	0,114
768,0	0,114
768,5	0,114
769,0	0,114
769,5	0,112
770,0	0,112
770,5	0,111
771,0	0,110
771,5	0,110
772,0	0,108
772,5	0,108
773,0	0,108
773,5	0,109
774,0	0,109
774,5	0,109
775,0	0,108
775,5	0,108
776,0	0,106
776,5	0,106
777,0	0,105
777,5	0,104
778,0	0,105
778,5	0,105
779,0	0,105
779,5	0,104
780,0	0,104
780,5	0,104
781,0	0,104
781,5	0,104
782,0	0,103
782,5	0,103
783,0	0,103
783,5	0,102
784,0	0,102
784,5	0,102
785,0	0,102
785,5	0,103
786,0	0,103
786,5	0,102
787,0	0,102
787,5	0,101
788,0	0,100
788,5	0,099
789,0	0,097
789,5	0,095
790,0	0,094
790,5	0,094
791,0	0,094
791,5	0,095
792,0	0,096
792,5	0,097
793,0	0,098
793,5	0,098
794,0	0,096
794,5	0,096
795,0	0,095
795,5	0,093
796,0	0,094
796,5	0,094
797,0	0,093
797,5	0,092
798,0	0,092
798,5	0,091
799,0	0,091
799,5	0,091
800,0	0,091
800,5	0,089
801,0	0,090
801,5	0,090
802,0	0,089
802,5	0,090
803,0	0,092
803,5	0,092
804,0	0,092
804,5	0,094
805,0	0,093
805,5	0,091
806,0	0,091
806,5	0,090
807,0	0,089
807,5	0,090
808,0	0,090
808,5	0,089
809,0	0,088
809,5	0,088
810,0	0,086
810,5	0,086
811,0	0,086
811,5	0,086
812,0	0,088
812,5	0,088
813,0	0,088
813,5	0,087
814,0	0,086
814,5	0,084
815,0	0,082
815,5	0,082
816,0	0,081
816,5	0,081
817,0	0,081
817,5	0,081
818,0	0,081
818,5	0,081
819,0	0,083
819,5	0,082
820,0	0,083
820,5	0,082
821,0	0,081
821,5	0,081
822,0	0,079
822,5	0,078
823,0	0,076
823,5	0,075
824,0	0,076
824,5	0,075
825,0	0,075
825,5	0,074
826,0	0,075
826,5	0,076
827,0	0,077
827,5	0,078
828,0	0,079
828,5	0,080
829,0	0,079
829,5	0,078
830,0	0,076
830,5	0,075
831,0	0,074
831,5	0,073
832,0	0,072
832,5	0,073
833,0	0,073
833,5	0,074
834,0	0,074
834,5	0,073
835,0	0,074
835,5	0,074
836,0	0,074
836,5	0,075
837,0	0,075
837,5	0,075
838,0	0,075
838,5	0,076
839,0	0,076
839,5	0,074
840,0	0,073
840,5	0,072
841,0	0,073
841,5	0,072
842,0	0,073
842,5	0,072
843,0	0,072
843,5	0,072
844,0	0,071
844,5	0,071
845,0	0,071
845,5	0,071
846,0	0,071
846,5	0,070
847,0	0,070
847,5	0,068
848,0	0,065
848,5	0,064
849,0	0,066
849,5	0,069
850,0	0,071

